Temperature,Squared_Magnetization,Susceptibility,Error_m2,Error_chi
0.5,1.0,0.0,0.0,0.0
0.5353535353535354,0.9999984619140625,2.918559109708817e-06,1.4991407317479432e-06,0.00017921803162904913
0.5707070707070707,0.9999984619140625,2.737763412647209e-06,1.4991407317479432e-06,0.00016811602966972778
0.6060606060606061,0.9999953857421875,7.733794914344117e-06,3.2808494323373967e-06,0.0003464577000547772
0.6414141414141414,0.999975390625,3.896078739050096e-05,5.588143719964964e-06,0.0005575823403102184
0.6767676767676768,0.9999769287109375,3.461854300871298e-05,7.173155277643383e-06,0.0006783449528231687
0.7121212121212122,0.9999492431640625,7.234717918375746e-05,7.303884125455526e-06,0.0006564171605516928
0.7474747474747474,0.999913916015625,0.00012107766892007796,1.2207963831560877e-05,0.0010452656599566359
0.7828282828282829,0.9998723876953125,0.00016931350252766532,1.2352370861216495e-05,0.0010098660874413468
0.8181818181818181,0.9997832275390625,0.00027596054253346364,1.7436340724186767e-05,0.0013639093188697804
0.8535353535353536,0.9996635009765625,0.00042433980261172077,2.4227123043655814e-05,0.001816604161001346
0.8888888888888888,0.999474658203125,0.0006452506054666074,2.3978758412145334e-05,0.0017264706056745653
0.9242424242424242,0.9992762939453125,0.0008376014946203796,3.5904085547247096e-05,0.0024862107762552315
0.9595959595959596,0.9989391845703125,0.0012392308310072953,4.3617462969058434e-05,0.0029090552144416066
0.9949494949494949,0.9986298828125,0.0014889392703087124,4.312189726793873e-05,0.0027738105694382854
1.0303030303030303,0.9982389404296875,0.001883714272745774,5.235398918326122e-05,0.00325210662220733
1.0656565656565657,0.9976385498046875,0.0025098772293287797,5.086052062682503e-05,0.003054523779066911
1.101010101010101,0.9969818359375,0.0031663742201820146,7.255892726570293e-05,0.004217737276655717
1.1363636363636362,0.996140234375,0.0039840513625040335,6.703804248460282e-05,0.0037755825527327562
1.1717171717171717,0.995214453125,0.004731741138204074,9.719043935764972e-05,0.005308608825604031
1.2070707070707072,0.9941136474609376,0.005796294374020279,9.68715351777195e-05,0.005136217965573497
1.2424242424242424,0.992312109375,0.008198405304884828,0.00013103673775059985,0.006749990003152919
1.2777777777777777,0.99097080078125,0.009208855638579804,0.0001369448839614309,0.006859152448850812
1.3131313131313131,0.9891882080078125,0.010803715282750658,0.00015277631130261197,0.007446082372410406
1.3484848484848484,0.98675888671875,0.013365351783702926,0.00013030120050487834,0.006184182819467407
1.3838383838383836,0.9844380126953125,0.01579201410270578,0.00017531174914560987,0.008107848486033626
1.4191919191919191,0.9811673828125,0.01925025394684615,0.0002509236097470078,0.011315672536348884
1.4545454545454546,0.97823681640625,0.022772481445314963,0.00018443293873425293,0.00811504930430704
1.4898989898989898,0.975319580078125,0.025572245338982964,0.0002458770924485439,0.010561879713586284
1.5252525252525253,0.97044072265625,0.031005839093539194,0.00021617652570976833,0.00907082428408653
1.5606060606060606,0.9663698486328125,0.03650348742642837,0.0003990129040538195,0.01636340297789638
1.595959595959596,0.961624560546875,0.04136900145272445,0.000250516783879174,0.010046040143407917
1.6313131313131313,0.9563355224609374,0.05008899423108259,0.0003989871587333135,0.01565314326770445
1.6666666666666665,0.94950966796875,0.05947447265625102,0.0004401658034041148,0.01690236685071798
1.702020202020202,0.942965185546875,0.0701326542618747,0.00048378132905965964,0.01819132641496747
1.7373737373737372,0.93422314453125,0.08055431055686256,0.00045737342740789907,0.0168483606747467
1.7727272727272727,0.9265928955078125,0.10109052617989041,0.0005542309161964943,0.02000915717960685
1.808080808080808,0.91609453125,0.11974671342527764,0.0006739086197250452,0.023854106226692103
1.8434343434343434,0.9059202880859375,0.14249769015860406,0.0007412855967639497,0.025735811184089817
1.8787878787878787,0.894277783203125,0.17391299095765944,0.0007074051523996775,0.024097414223679295
1.9141414141414141,0.8810773681640625,0.21313623046441954,0.0007977759212463987,0.02667392209507756
1.9494949494949494,0.8639532958984375,0.28398970466907997,0.0009026564919133159,0.029633324003952195
1.9848484848484849,0.8491582763671875,0.32209463270933103,0.0011090607207497093,0.035760858659899045
2.02020202020202,0.829111279296875,0.40100072976562556,0.0010157234366617214,0.032178118473443325
2.0555555555555554,0.811979052734375,0.46837969540540353,0.0012596150393832737,0.03921828446944682
2.090909090909091,0.7944323486328125,0.5259218473997992,0.0013923413083497403,0.0426177513512268
2.1262626262626263,0.7668190185546875,0.6812713283011078,0.0010936104812328692,0.03291741572014947
2.1616161616161618,0.737918359375,0.8079228973926698,0.0020495148385872497,0.0606809626976113
2.196969696969697,0.7098677978515625,0.9210203871675644,0.0020261308549693047,0.05902328780269209
2.2323232323232323,0.6796255859375,1.0641651665752285,0.002636997466009094,0.07560188210241452
2.2676767676767673,0.6506135009765625,1.1664332271584446,0.0018660598846977723,0.05266528030933224
2.3030303030303028,0.615652783203125,1.31828659006579,0.00231798347926177,0.06441554089737972
2.3383838383838382,0.57932392578125,1.4422827719789422,0.00222548061960927,0.060909914496087805
2.3737373737373737,0.5455581298828125,1.556413290845246,0.0028764167092834715,0.07755309051072377
2.409090909090909,0.516021826171875,1.640174083378538,0.0021840421472426133,0.05802134610033204
2.4444444444444446,0.48244423828125,1.6944964667897744,0.002653165287570135,0.06946469116547259
2.4797979797979797,0.4521885009765625,1.724880896723046,0.002369179707424155,0.061145102347207464
2.515151515151515,0.4173455322265625,1.7775993856245282,0.0026507416187373962,0.06745019637076365
2.5505050505050506,0.3851752197265625,1.7619506743658733,0.0019634503360515714,0.049268995363258426
2.5858585858585856,0.3575558837890625,1.740196483194122,0.002402623018851262,0.05946491971656872
2.621212121212121,0.336419580078125,1.7013890685476876,0.0021333816168922705,0.052089040171982355
2.6565656565656566,0.3092517578125,1.645275918250951,0.0020858149644386024,0.050249899675600694
2.691919191919192,0.2914283203125,1.6237297949437142,0.0022092780790963023,0.052525275456488475
2.727272727272727,0.275648779296875,1.5511328651041663,0.0024430671247798485,0.05733064186150045
2.7626262626262625,0.2562452392578125,1.4819326141654772,0.0021108876008193414,0.048901586247865995
2.797979797979798,0.2393810546875,1.4079671202194277,0.001787600213822945,0.04088893485480931
2.833333333333333,0.22856708984375,1.3609811788235295,0.0020134135780174468,0.04547945964462941
2.8686868686868685,0.209914892578125,1.3044275093909552,0.002116638176828296,0.047221899606986244
2.904040404040404,0.1989203857421875,1.2440103469495922,0.0019397638518709316,0.04274902179288424
2.9393939393939394,0.187895458984375,1.184610878683957,0.0020503276562810076,0.04464218567077823
2.9747474747474745,0.17967412109375,1.1229216785144311,0.0015229495504023621,0.03276539338318968
3.01010101010101,0.166198388671875,1.0582257976242655,0.0018315797902989704,0.03894258238702777
3.0454545454545454,0.1621531982421875,1.0222878083733675,0.0016774869579182698,0.03525226323505857
3.080808080808081,0.1515999267578125,0.97024761736437,0.00152663598768095,0.03171398563261147
3.116161616161616,0.1454845947265625,0.9245405250786315,0.0011897007774146194,0.024434178689462006
3.1515151515151514,0.13998857421875,0.8895243644936899,0.001324004746150531,0.02688748099874925
3.186868686868687,0.1317067138671875,0.8339640627214987,0.0014548397932120695,0.029216687574617012
3.2222222222222223,0.1266117431640625,0.8108597639749466,0.0014635358240807368,0.029068849471396707
3.2575757575757573,0.11815458984375,0.7581078564636627,0.0011284546491470784,0.02217019738603376
3.292929292929293,0.1156475341796875,0.7312568478562355,0.0009472872313719379,0.018411079441633754
3.3282828282828283,0.1134218505859375,0.7073605980326488,0.0011258783458609387,0.021649666765932954
3.3636363636363633,0.107489111328125,0.6668316108994933,0.001126377438173967,0.021431613958769535
3.398989898989899,0.106841748046875,0.6583756177210252,0.001399818209314964,0.026357349700504046
3.4343434343434343,0.100741015625,0.6217529563993567,0.0009477136029454548,0.017660921730183528
3.4696969696969697,0.0967810791015625,0.5953111352016237,0.0012805200145367328,0.023619722888223418
3.5050505050505047,0.0938124267578125,0.570125393847825,0.0010029585467145087,0.018313387181507563
3.54040404040404,0.090148046875,0.5394222532368936,0.0009494079775478892,0.017162479160466263
3.5757575757575757,0.0875655029296875,0.5291846575155589,0.0009117067588109123,0.016318005717022428
3.611111111111111,0.0877060546875,0.5275282969038463,0.0010252044171513877,0.018169776747052276
3.646464646464646,0.082758935546875,0.4966901080834489,0.0012159558280459594,0.02134154051661828
3.6818181818181817,0.08252490234375,0.4852267749575617,0.0009782541409148215,0.017004713955655167
3.717171717171717,0.080173095703125,0.4679373283899458,0.0009070290587642728,0.015616674229158783
3.7525252525252526,0.075336328125,0.44212499123317645,0.0009126370206928679,0.015565190210255746
3.7878787878787876,0.0778751708984375,0.4484438054146874,0.000846294223127867,0.014298987193968438
3.823232323232323,0.07735576171875,0.4456176749294089,0.0008498577324231965,0.014226416360986453
3.8585858585858586,0.0728035888671875,0.418127125542887,0.001031970363137676,0.017116660263979875
3.8939393939393936,0.070289404296875,0.39773566192485404,0.0008763494522343959,0.014403502281082059
3.929292929292929,0.069415087890625,0.3915305960089975,0.0008326366080646244,0.013561916577628437
3.9646464646464645,0.0682545166015625,0.3828403531836185,0.0008384664822373919,0.013535092054665264
4.0,0.066792333984375,0.3740801131249999,0.0007238945138277574,0.011582312221244123
