Temperature,Squared_Magnetization,Susceptibility,Error_m2,Error_chi
0.5,0.9999990099999999,1.9999500056044894e-06,9.64932640136782e-07,0.00019298652802721787
0.5353535353535354,0.9999990099999999,1.8678778354230607e-06,9.64932640136782e-07,0.0001802421346669298
0.5707070707070707,0.99999802,3.5042495790072097e-06,1.328224378635831e-06,0.00023273312121212884
0.6060606060606061,0.9999891100000001,1.8145008763847947e-05,2.961738509729147e-06,0.0004886868541049583
0.6414141414141414,0.9999901,1.5586653517469428e-05,2.213707297726385e-06,0.0003451291692515824
0.6767676767676768,0.9999802,2.9537462702599165e-05,4.849989690714183e-06,0.0007166402677318801
0.7121212121212122,0.9999396300000001,8.833745428057395e-05,7.596055226232474e-06,0.0010666800955988485
0.7474747474747474,0.9999099299999998,0.0001241419530308565,8.454635119269536e-06,0.001131093076767255
0.7828282828282829,0.9998535599999999,0.00019857790451220075,1.1325269091724624e-05,0.00144671179365272
0.8181818181818181,0.9997407000000001,0.0003279025444120127,9.58288578664749e-06,0.0011712415961462502
0.8535353535353536,0.99963784,0.0004459699278189315,1.8095864720979658e-05,0.0021201072276650886
0.8888888888888888,0.9995309599999999,0.0005516809874678286,2.2782614424161316e-05,0.0025630441227181442
0.9242424242424242,0.9992927099999999,0.0008203685040586986,2.623866412377041e-05,0.0028389374297849244
0.9595959595959596,0.9990137299999998,0.0010922823971009897,3.561854650319126e-05,0.003711827477700993
0.9949494949494949,0.9986329399999999,0.001453593280197718,2.7096549964894446e-05,0.0027234095903802187
1.0303030303030303,0.99816866,0.001922009682333646,4.651241576181173e-05,0.004514440353352705
1.0656565656565657,0.99752176,0.0026450814369478257,6.330211781606853e-05,0.0059401987334514175
1.101010101010101,0.99685649,0.0033566565571184854,6.264376820562405e-05,0.005689663350786076
1.1363636363636362,0.9959867199999999,0.004100005887972103,6.573277934181828e-05,0.005784484582079903
1.1717171717171717,0.9951707199999998,0.004842216651705406,7.498419220076222e-05,0.0063995129550645765
1.2070707070707072,0.99382743,0.006183770951666156,9.572557785148473e-05,0.007930403520750341
1.2424242424242424,0.9924977,0.007503232134142022,7.927729624551844e-05,0.00638085555146872
1.2777777777777777,0.9909130299999999,0.009137335597813915,0.00011719996610494641,0.009172171260386924
1.3131313131313131,0.9889816199999998,0.010988511929990686,0.00010433231033577417,0.007945306710185781
1.3484848484848484,0.98683631,0.012795635779206588,0.00014079187439266746,0.010440745741478548
1.3838383838383836,0.984375,0.01559182766716234,0.00014033592840038817,0.010141063439152437
1.4191919191919191,0.9817849199999998,0.01795660703488052,0.00014461594476405216,0.010190020307218066
1.4545454545454546,0.9783181499999999,0.022053012695286145,0.00017762485686130557,0.012211708909214901
1.4898989898989898,0.9745798200000001,0.025851271368799722,0.00022958803623011575,0.015409637685953397
1.5252525252525253,0.9707013699999999,0.030263509557110397,0.0001952392077811187,0.012800451371080162
1.5606060606060606,0.9664008699999999,0.03595069902085858,0.0002769786447634536,0.017748146169308747
1.595959595959596,0.961155,0.04227164150696539,0.0002395263910302963,0.015008299184809911
1.6313131313131313,0.9555488,0.048978042024133236,0.00024460383561996697,0.014994290852245679
1.6666666666666665,0.9483700899999999,0.05951926666500019,0.0003089194346346564,0.018535166078079795
1.702020202020202,0.9419744599999998,0.06962530465815446,0.00036644324720207125,0.021529899983979396
1.7373737373737372,0.9343789199999999,0.07972958921857705,0.0004294873712695182,0.024720494044001277
1.7727272727272727,0.9247896699999999,0.09752947711408176,0.00043847762480541503,0.02473463524543377
1.808080808080808,0.9146837699999998,0.12058378364536913,0.0006809062671579664,0.03765906170315027
1.8434343434343434,0.9045532799999999,0.14271121688548755,0.0005907760569623622,0.032047577884533794
1.8787878787878787,0.89032837,0.1805913420060445,0.0006442239344009249,0.034289338443919896
1.9141414141414141,0.8790368499999999,0.2115652957420717,0.0008607035675393701,0.0449655161933497
1.9494949494949494,0.86354208,0.2712530033160624,0.0008464010129247242,0.04341642501530972
1.9848484848484849,0.84465072,0.3383396519816717,0.0009743530080417416,0.04908954086317196
2.02020202020202,0.82637877,0.43811758206562135,0.0010289720277320516,0.05093411537273632
2.0555555555555554,0.8033767099999999,0.5597233048094524,0.0009118996744680831,0.044362686866014966
2.090909090909091,0.7805322499999999,0.6696301266576011,0.0014318410832124464,0.06847935615363887
2.1262626262626263,0.7516416499999999,0.8628555650248102,0.0015979826450168402,0.0751545281979414
2.1616161616161618,0.72058231,1.0431838745547846,0.0018206251874823072,0.08422518390689195
2.196969696969697,0.68940004,1.2653053302165587,0.0017057365277556873,0.07764042126336194
2.2323232323232323,0.65624735,1.4820053146747727,0.0019665769882145465,0.08809553024128515
2.2676767676767673,0.6129974399999999,1.7831396825318537,0.0022676537607668416,0.09999898544138855
2.3030303030303028,0.57263052,2.0128771267144714,0.0022153115699332245,0.09619116027341625
2.3383838383838382,0.53323075,2.2796390881059425,0.0026910251737534844,0.11508055818643434
2.3737373737373737,0.49334133,2.3727071104362767,0.002997008839702515,0.126256968140659
2.409090909090909,0.44806084,2.545457046871701,0.0017232843159850344,0.07153255651258625
2.4444444444444446,0.41376926999999997,2.6452395629079506,0.0027845017041214044,0.113911433350421
2.4797979797979797,0.37075799,2.6535985283410346,0.003110241779395132,0.12542319191858167
2.515151515151515,0.34242622,2.6021578913530146,0.002300685455941337,0.09147303620007727
2.5505050505050506,0.30920522,2.5197884726114865,0.0023856349782772714,0.09353578726710887
2.5858585858585856,0.28116543,2.4828417646215812,0.0019247261079060039,0.07443276745417754
2.621212121212121,0.25626099,2.3442503851742797,0.0019805409652655487,0.07555821023556436
2.6565656565656566,0.23848155999999998,2.2345770253140684,0.002071154174444771,0.07796359820153317
2.691919191919192,0.21280327,2.0767817791696985,0.0015906507098841652,0.059089838753670694
2.727272727272727,0.19538587,1.9586527919841654,0.001799256063225854,0.06597272231828134
2.7626262626262625,0.17977504,1.862769242991225,0.002170467102519641,0.0785653539851716
2.797979797979798,0.16800914,1.733861513618773,0.001841880389172979,0.06582893809679594
2.833333333333333,0.1557961,1.6314532144941183,0.0017414298396719865,0.06146222963548188
2.8686868686868685,0.14419963,1.5178233097877638,0.0016072653107856842,0.056027910481613624
2.904040404040404,0.13296463,1.4119348233138262,0.00134520523625765,0.04632184987461126
2.9393939393939394,0.12651951,1.336085764939948,0.0014674650035673767,0.04992406713167363
2.9747474747474745,0.11779208,1.275689313669269,0.0015828076546693854,0.05320813508056677
3.01010101010101,0.11307669000000001,1.206612815578942,0.001197659335660603,0.03978801148671135
3.0454545454545454,0.10452095000000002,1.117260326887313,0.0010294739256411496,0.033803621438963136
3.080808080808081,0.10149125000000002,1.0612967924692627,0.0009114336025048668,0.029584238245239942
3.116161616161616,0.09425580000000001,0.9962670726058352,0.0011465600681167993,0.03679398597846455
3.1515151515151514,0.09132215,0.9729181166401439,0.0007697658217763379,0.024425261652518404
3.186868686868687,0.08516431000000001,0.9053348703268614,0.0010542817914082553,0.03308205938174874
3.2222222222222223,0.08401026000000002,0.8750983962724143,0.0008558082823974071,0.026559567384747115
3.2575757575757573,0.08001089,0.8197839960481393,0.0006997274767329061,0.02148000626249852
3.292929292929293,0.07246757,0.7430937527960885,0.000782858087685757,0.02377391125180672
3.3282828282828283,0.07346274000000001,0.7443511339984827,0.0009844993200708676,0.029579797477091305
3.3636363636363633,0.07022804,0.713552756281081,0.0009770632278005356,0.029047825691367258
3.398989898989899,0.06591490000000001,0.6712673551274891,0.0009455336227231685,0.027818076864663813
3.4343434343434343,0.06538176,0.6536888470588229,0.0009909705454351303,0.02885473058766997
3.4696969696969697,0.06148537000000001,0.6141451586652843,0.000988167376639707,0.028479933125860536
3.5050505050505047,0.06126567,0.6027002012470465,0.0009489757854945513,0.027074525292207652
3.54040404040404,0.059025570000000006,0.5814769823672611,0.0007899693893151811,0.02231297276525048
3.5757575757575757,0.05892176,0.5713712712940673,0.0009097054992248866,0.025440916503746826
3.611111111111111,0.055939840000000005,0.5413657245507693,0.0008209877320155274,0.022735044886583844
3.646464646464646,0.05425743000000001,0.519663035760457,0.0007435895837456306,0.02039206891712394
3.6818181818181817,0.051226179999999996,0.4898045412740738,0.0006970419047517875,0.018932002351283117
3.717171717171717,0.051201670000000005,0.4837072325900135,0.0008841547355836534,0.02378568446271242
3.7525252525252526,0.04934999,0.46269765508082084,0.0007392687986754205,0.019700568255414982
3.7878787878787876,0.048399120000000004,0.4484254197984001,0.0006073471046115227,0.0160339635617442
3.823232323232323,0.04780917,0.4375081000468296,0.0007070089284125059,0.018492439607090648
3.8585858585858586,0.04607814,0.4246372145520939,0.0008550215074604847,0.022158934355651305
3.8939393939393936,0.04500635,0.4057952184449416,0.0008401889743236338,0.021576837472902663
3.929292929292929,0.04366617,0.38535765849543674,0.0006029332416238138,0.015344573501480089
3.9646464646464645,0.04277526,0.38374033800152874,0.0005096868560400589,0.012855795859354358
4.0,0.04232409,0.37820717919374985,0.000604832436212708,0.01512081090531771
